Time[ps]      Etot[eV]     Epot[eV]     Ekin[eV]    T[K]
0.0000        -1533.067    -1533.783        0.716    57.7
0.0010        -1533.101    -1533.910        0.809    65.2
0.0020        -1533.123    -1534.230        1.107    89.2
0.0030        -1533.142    -1534.678        1.536   123.8
0.0040        -1533.163    -1535.175        2.012   162.1
0.0050        -1533.209    -1535.645        2.436   196.3
0.0060        -1533.247    -1536.031        2.784   224.3
0.0070        -1533.294    -1536.317        3.023   243.6
0.0080        -1533.352    -1536.515        3.163   254.9
0.0090        -1533.402    -1536.652        3.249   261.9
0.0100        -1533.461    -1536.757        3.296   265.6
0.0110        -1533.537    -1536.837        3.300   265.9
0.0120        -1533.574    -1536.877        3.303   266.2
0.0130        -1533.610    -1536.839        3.229   260.2
0.0140        -1533.657    -1536.707        3.050   245.8
0.0150        -1533.684    -1536.499        2.816   226.9
0.0160        -1533.712    -1536.263        2.551   205.6
0.0170        -1533.730    -1536.077        2.346   189.1
0.0180        -1533.751    -1535.995        2.244   180.8
0.0190        -1533.810    -1536.023        2.213   178.3
0.0200        -1533.854    -1536.126        2.272   183.1
0.0210        -1533.908    -1536.242        2.334   188.1
0.0220        -1533.926    -1536.300        2.374   191.3
0.0230        -1533.940    -1536.259        2.318   186.8
0.0240        -1533.996    -1536.117        2.121   171.0
0.0250        -1534.066    -1535.930        1.864   150.2
0.0260        -1534.105    -1535.769        1.664   134.1
0.0270        -1534.110    -1535.695        1.584   127.7
0.0280        -1534.131    -1535.717        1.586   127.8
0.0290        -1534.169    -1535.798        1.630   131.3
0.0300        -1534.191    -1535.880        1.688   136.1
0.0310        -1534.207    -1535.915        1.708   137.6
0.0320        -1534.216    -1535.882        1.666   134.3
0.0330        -1534.230    -1535.795        1.565   126.1
0.0340        -1534.244    -1535.701        1.457   117.4
0.0350        -1534.228    -1535.663        1.435   115.7
0.0360        -1534.207    -1535.736        1.529   123.2
0.0370        -1534.248    -1535.950        1.702   137.2
0.0380        -1534.284    -1536.287        2.003   161.4
0.0390        -1534.329    -1536.683        2.354   189.7
0.0400        -1534.421    -1537.058        2.638   212.6
0.0410        -1534.463    -1537.335        2.872   231.4
0.0420        -1534.493    -1537.458        2.964   238.9
0.0430        -1534.538    -1537.419        2.881   232.2
0.0440        -1534.583    -1537.260        2.677   215.7
0.0450        -1534.632    -1537.049        2.417   194.7
0.0460        -1534.658    -1536.851        2.193   176.7
0.0470        -1534.654    -1536.696        2.042   164.5
0.0480        -1534.699    -1536.582        1.883   151.7
0.0490        -1534.740    -1536.486        1.746   140.7
0.0500        -1534.780    -1536.385        1.605   129.4
0.0510        -1534.784    -1536.271        1.487   119.9
0.0520        -1534.790    -1536.144        1.354   109.1
0.0530        -1534.790    -1536.033        1.242   100.1
0.0540        -1534.827    -1535.971        1.144    92.2
0.0550        -1534.847    -1535.988        1.141    91.9
0.0560        -1534.856    -1536.087        1.231    99.2
0.0570        -1534.874    -1536.245        1.372   110.5
0.0580        -1534.876    -1536.428        1.552   125.0
0.0590        -1534.901    -1536.596        1.695   136.6
0.0600        -1534.935    -1536.713        1.778   143.3
0.0610        -1534.934    -1536.766        1.833   147.7
0.0620        -1534.980    -1536.768        1.789   144.1
0.0630        -1535.020    -1536.742        1.722   138.8
0.0640        -1535.056    -1536.710        1.654   133.3
0.0650        -1535.086    -1536.691        1.606   129.4
0.0660        -1535.088    -1536.688        1.600   129.0
0.0670        -1535.113    -1536.698        1.585   127.8
0.0680        -1535.142    -1536.712        1.569   126.5
0.0690        -1535.159    -1536.730        1.571   126.6
0.0700        -1535.211    -1536.755        1.543   124.4
0.0710        -1535.247    -1536.803        1.556   125.4
0.0720        -1535.254    -1536.886        1.632   131.5
0.0730        -1535.288    -1537.004        1.715   138.2
0.0740        -1535.298    -1537.134        1.835   147.9
0.0750        -1535.304    -1537.252        1.948   157.0
0.0760        -1535.347    -1537.321        1.974   159.1
0.0770        -1535.381    -1537.313        1.932   155.7
0.0780        -1535.416    -1537.221        1.805   145.5
0.0790        -1535.421    -1537.056        1.635   131.7
0.0800        -1535.465    -1536.849        1.384   111.5
0.0810        -1535.489    -1536.635        1.146    92.4
0.0820        -1535.494    -1536.456        0.962    77.5
0.0830        -1535.486    -1536.338        0.852    68.6
0.0840        -1535.492    -1536.304        0.812    65.4
0.0850        -1535.496    -1536.354        0.858    69.2
0.0860        -1535.491    -1536.464        0.973    78.4
0.0870        -1535.503    -1536.603        1.101    88.7
0.0880        -1535.518    -1536.741        1.224    98.6
0.0890        -1535.550    -1536.863        1.313   105.8
0.0900        -1535.535    -1536.959        1.424   114.8
0.0910        -1535.552    -1537.028        1.476   118.9
0.0920        -1535.564    -1537.082        1.518   122.3
0.0930        -1535.591    -1537.130        1.540   124.1
0.0940        -1535.603    -1537.175        1.572   126.7
0.0950        -1535.620    -1537.213        1.593   128.4
0.0960        -1535.646    -1537.234        1.589   128.0
0.0970        -1535.685    -1537.230        1.545   124.5
0.0980        -1535.670    -1537.199        1.528   123.2
0.0990        -1535.662    -1537.145        1.483   119.5
0.1000        -1535.643    -1537.080        1.437   115.8
0.1010        -1535.666    -1537.013        1.347   108.6
0.1020        -1535.678    -1536.968        1.289   103.9
0.1030        -1535.685    -1536.952        1.267   102.1
0.1040        -1535.686    -1536.972        1.287   103.7
0.1050        -1535.714    -1537.013        1.300   104.7
0.1060        -1535.740    -1537.067        1.327   107.0
0.1070        -1535.740    -1537.124        1.384   111.5
0.1080        -1535.765    -1537.169        1.404   113.2
0.1090        -1535.757    -1537.196        1.438   115.9
0.1100        -1535.781    -1537.194        1.413   113.9
0.1110        -1535.832    -1537.165        1.333   107.4
0.1120        -1535.852    -1537.112        1.260   101.5
0.1130        -1535.851    -1537.043        1.192    96.1
0.1140        -1535.874    -1536.966        1.093    88.1
0.1150        -1535.884    -1536.891        1.007    81.1
0.1160        -1535.883    -1536.831        0.949    76.4
0.1170        -1535.869    -1536.801        0.933    75.2
0.1180        -1535.872    -1536.811        0.939    75.7
0.1190        -1535.875    -1536.870        0.995    80.2
0.1200        -1535.903    -1536.971        1.068    86.1
0.1210        -1535.913    -1537.100        1.187    95.7
0.1220        -1535.914    -1537.239        1.325   106.8
0.1230        -1535.932    -1537.362        1.430   115.3
0.1240        -1535.937    -1537.448        1.511   121.7
0.1250        -1535.977    -1537.481        1.504   121.2
0.1260        -1535.984    -1537.461        1.477   119.1
0.1270        -1536.004    -1537.403        1.399   112.8
0.1280        -1536.001    -1537.333        1.332   107.3
0.1290        -1536.006    -1537.273        1.267   102.1
0.1300        -1536.002    -1537.235        1.233    99.3
0.1310        -1536.031    -1537.221        1.190    95.9
0.1320        -1536.021    -1537.218        1.197    96.5
0.1330        -1536.037    -1537.216        1.180    95.1
0.1340        -1536.052    -1537.197        1.145    92.3
0.1350        -1536.053    -1537.160        1.107    89.2
0.1360        -1536.060    -1537.108        1.047    84.4
0.1370        -1536.073    -1537.052        0.979    78.9
0.1380        -1536.064    -1537.010        0.946    76.3
0.1390        -1536.065    -1536.990        0.925    74.5
0.1400        -1536.062    -1536.998        0.936    75.4
0.1410        -1536.069    -1537.027        0.958    77.2
0.1420        -1536.082    -1537.063        0.981    79.0
0.1430        -1536.102    -1537.105        1.003    80.8
0.1440        -1536.099    -1537.145        1.046    84.3
0.1450        -1536.094    -1537.180        1.086    87.5
0.1460        -1536.118    -1537.208        1.090    87.9
0.1470        -1536.135    -1537.223        1.087    87.6
0.1480        -1536.131    -1537.228        1.097    88.4
0.1490        -1536.142    -1537.228        1.085    87.5
0.1500        -1536.144    -1537.216        1.071    86.3
0.1510        -1536.169    -1537.207        1.038    83.7
0.1520        -1536.186    -1537.210        1.024    82.5
0.1530        -1536.197    -1537.227        1.030    83.0
0.1540        -1536.220    -1537.262        1.041    83.9
0.1550        -1536.244    -1537.312        1.068    86.1
0.1560        -1536.252    -1537.371        1.119    90.2
0.1570        -1536.260    -1537.435        1.175    94.7
0.1580        -1536.282    -1537.488        1.206    97.2
0.1590        -1536.311    -1537.519        1.207    97.3
0.1600        -1536.316    -1537.519        1.203    97.0
0.1610        -1536.315    -1537.492        1.178    94.9
0.1620        -1536.349    -1537.446        1.097    88.4
0.1630        -1536.346    -1537.398        1.051    84.7
0.1640        -1536.359    -1537.353        0.994    80.1
0.1650        -1536.364    -1537.319        0.955    77.0
0.1660        -1536.375    -1537.297        0.922    74.3
0.1670        -1536.371    -1537.279        0.908    73.2
0.1680        -1536.383    -1537.258        0.875    70.5
0.1690        -1536.372    -1537.235        0.863    69.5
0.1700        -1536.370    -1537.210        0.840    67.7
0.1710        -1536.408    -1537.189        0.781    63.0
0.1720        -1536.416    -1537.180        0.764    61.5
0.1730        -1536.414    -1537.192        0.777    62.7
0.1740        -1536.418    -1537.231        0.814    65.6
0.1750        -1536.428    -1537.290        0.862    69.4
0.1760        -1536.445    -1537.360        0.915    73.7
0.1770        -1536.449    -1537.432        0.983    79.2
0.1780        -1536.448    -1537.500        1.053    84.8
0.1790        -1536.461    -1537.555        1.094    88.2
0.1800        -1536.467    -1537.590        1.122    90.4
0.1810        -1536.466    -1537.610        1.144    92.2
0.1820        -1536.498    -1537.606        1.108    89.3
0.1830        -1536.517    -1537.578        1.061    85.5
0.1840        -1536.527    -1537.533        1.006    81.1
0.1850        -1536.553    -1537.483        0.930    75.0
0.1860        -1536.564    -1537.440        0.876    70.6
0.1870        -1536.565    -1537.411        0.846    68.2
0.1880        -1536.555    -1537.398        0.843    67.9
0.1890        -1536.559    -1537.402        0.843    67.9
0.1900        -1536.560    -1537.421        0.861    69.4
0.1910        -1536.586    -1537.452        0.866    69.8
0.1920        -1536.578    -1537.483        0.905    72.9
0.1930        -1536.594    -1537.502        0.909    73.2
0.1940        -1536.588    -1537.504        0.917    73.9
0.1950        -1536.579    -1537.487        0.908    73.1
0.1960        -1536.581    -1537.452        0.871    70.2
0.1970        -1536.584    -1537.406        0.821    66.2
0.1980        -1536.614    -1537.364        0.750    60.5
0.1990        -1536.616    -1537.334        0.718    57.8
0.2000        -1536.606    -1537.326        0.720    58.0
0.2010        -1536.588    -1537.343        0.755    60.9
0.2020        -1536.593    -1537.379        0.786    63.3
0.2030        -1536.610    -1537.424        0.814    65.6
0.2040        -1536.619    -1537.470        0.851    68.6
0.2050        -1536.615    -1537.510        0.895    72.1
0.2060        -1536.625    -1537.536        0.910    73.3
0.2070        -1536.651    -1537.549        0.899    72.4
0.2080        -1536.651    -1537.559        0.908    73.2
0.2090        -1536.659    -1537.569        0.910    73.4
0.2100        -1536.692    -1537.585        0.893    72.0
0.2110        -1536.707    -1537.609        0.902    72.7
0.2120        -1536.718    -1537.634        0.916    73.8
0.2130        -1536.726    -1537.657        0.931    75.0
0.2140        -1536.708    -1537.670        0.962    77.6
0.2150        -1536.734    -1537.671        0.937    75.5
0.2160        -1536.755    -1537.651        0.895    72.1
0.2170        -1536.765    -1537.615        0.849    68.5
0.2180        -1536.765    -1537.565        0.800    64.5
0.2190        -1536.780    -1537.515        0.735    59.2
0.2200        -1536.797    -1537.471        0.674    54.3
0.2210        -1536.800    -1537.439        0.639    51.5
0.2220        -1536.801    -1537.424        0.623    50.2
0.2230        -1536.800    -1537.426        0.626    50.5
0.2240        -1536.808    -1537.449        0.640    51.6
0.2250        -1536.812    -1537.485        0.674    54.3
0.2260        -1536.809    -1537.530        0.721    58.1
0.2270        -1536.815    -1537.571        0.756    60.9
0.2280        -1536.813    -1537.598        0.784    63.2
0.2290        -1536.807    -1537.605        0.798    64.3
0.2300        -1536.814    -1537.590        0.776    62.5
0.2310        -1536.828    -1537.560        0.732    59.0
0.2320        -1536.842    -1537.524        0.682    54.9
0.2330        -1536.836    -1537.493        0.657    52.9
0.2340        -1536.813    -1537.479        0.666    53.7
0.2350        -1536.802    -1537.486        0.684    55.1
0.2360        -1536.789    -1537.513        0.724    58.4
0.2370        -1536.796    -1537.552        0.755    60.9
0.2380        -1536.795    -1537.595        0.800    64.5
0.2390        -1536.805    -1537.633        0.828    66.7
0.2400        -1536.813    -1537.658        0.845    68.1
0.2410        -1536.824    -1537.665        0.840    67.7
0.2420        -1536.831    -1537.653        0.822    66.2
0.2430        -1536.828    -1537.627        0.799    64.4
0.2440        -1536.827    -1537.598        0.771    62.1
0.2450        -1536.815    -1537.573        0.758    61.1
0.2460        -1536.820    -1537.556        0.736    59.3
0.2470        -1536.835    -1537.551        0.716    57.7
0.2480        -1536.830    -1537.559        0.729    58.8
0.2490        -1536.846    -1537.572        0.726    58.5
0.2500        -1536.834    -1537.584        0.750    60.4
0.2510        -1536.840    -1537.586        0.746    60.1
0.2520        -1536.843    -1537.575        0.732    59.0
0.2530        -1536.849    -1537.556        0.707    57.0
0.2540        -1536.845    -1537.540        0.695    56.0
0.2550        -1536.854    -1537.535        0.681    54.9
0.2560        -1536.848    -1537.542        0.694    55.9
0.2570        -1536.849    -1537.560        0.711    57.3
0.2580        -1536.833    -1537.583        0.750    60.4
0.2590        -1536.820    -1537.604        0.784    63.1
0.2600        -1536.824    -1537.613        0.789    63.6
0.2610        -1536.827    -1537.610        0.783    63.1
0.2620        -1536.829    -1537.594        0.765    61.7
0.2630        -1536.824    -1537.575        0.752    60.6
0.2640        -1536.827    -1537.558        0.731    58.9
0.2650        -1536.823    -1537.551        0.728    58.7
0.2660        -1536.825    -1537.555        0.729    58.8
0.2670        -1536.845    -1537.565        0.720    58.0
0.2680        -1536.845    -1537.580        0.735    59.3
0.2690        -1536.843    -1537.602        0.758    61.1
0.2700        -1536.820    -1537.625        0.805    64.9
0.2710        -1536.825    -1537.643        0.818    65.9
0.2720        -1536.838    -1537.649        0.812    65.4
0.2730        -1536.838    -1537.646        0.808    65.1
0.2740        -1536.835    -1537.631        0.796    64.2
0.2750        -1536.836    -1537.606        0.770    62.1
0.2760        -1536.848    -1537.579        0.732    59.0
0.2770        -1536.845    -1537.560        0.715    57.6
0.2780        -1536.851    -1537.548        0.697    56.2
0.2790        -1536.855    -1537.541        0.686    55.3
0.2800        -1536.871    -1537.542        0.671    54.1
0.2810        -1536.872    -1537.549        0.677    54.5
0.2820        -1536.877    -1537.562        0.685    55.2
0.2830        -1536.879    -1537.575        0.696    56.1
0.2840        -1536.870    -1537.588        0.718    57.9
0.2850        -1536.870    -1537.595        0.725    58.4
0.2860        -1536.863    -1537.595        0.733    59.0
0.2870        -1536.873    -1537.588        0.715    57.6
0.2880        -1536.868    -1537.575        0.707    57.0
0.2890        -1536.872    -1537.568        0.696    56.1
0.2900        -1536.859    -1537.571        0.711    57.3
0.2910        -1536.874    -1537.580        0.706    56.9
0.2920        -1536.845    -1537.588        0.742    59.8
0.2930        -1536.830    -1537.597        0.767    61.8
0.2940        -1536.827    -1537.605        0.779    62.8
0.2950        -1536.810    -1537.609        0.799    64.4
0.2960        -1536.801    -1537.610        0.808    65.1
0.2970        -1536.817    -1537.606        0.789    63.6
0.2980        -1536.815    -1537.598        0.784    63.2
0.2990        -1536.814    -1537.593        0.778    62.7
0.3000        -1536.825    -1537.587        0.762    61.4
0.3010        -1536.832    -1537.581        0.749    60.4
0.3020        -1536.815    -1537.574        0.760    61.2
0.3030        -1536.811    -1537.569        0.759    61.2
0.3040        -1536.817    -1537.570        0.752    60.6
0.3050        -1536.820    -1537.580        0.759    61.2
0.3060        -1536.828    -1537.596        0.767    61.8
0.3070        -1536.821    -1537.614        0.793    63.9
0.3080        -1536.833    -1537.633        0.800    64.5
0.3090        -1536.859    -1537.647        0.789    63.5
0.3100        -1536.863    -1537.652        0.789    63.6
0.3110        -1536.879    -1537.648        0.769    62.0
0.3120        -1536.887    -1537.631        0.744    59.9
0.3130        -1536.890    -1537.605        0.715    57.6
0.3140        -1536.879    -1537.572        0.693    55.9
0.3150        -1536.872    -1537.536        0.664    53.5
0.3160        -1536.872    -1537.510        0.638    51.4
0.3170        -1536.875    -1537.496        0.621    50.1
0.3180        -1536.884    -1537.506        0.622    50.1
0.3190        -1536.886    -1537.535        0.649    52.3
0.3200        -1536.901    -1537.575        0.674    54.3
0.3210        -1536.921    -1537.613        0.692    55.7
0.3220        -1536.908    -1537.641        0.733    59.1
0.3230        -1536.917    -1537.653        0.736    59.3
0.3240        -1536.924    -1537.649        0.725    58.4
0.3250        -1536.943    -1537.637        0.694    56.0
0.3260        -1536.932    -1537.630        0.699    56.3
0.3270        -1536.937    -1537.631        0.694    55.9
0.3280        -1536.937    -1537.642        0.705    56.8
0.3290        -1536.947    -1537.662        0.715    57.6
0.3300        -1536.953    -1537.683        0.730    58.8
0.3310        -1536.952    -1537.700        0.747    60.2
0.3320        -1536.967    -1537.707        0.739    59.6
0.3330        -1536.963    -1537.700        0.737    59.4
0.3340        -1536.961    -1537.684        0.723    58.3
0.3350        -1536.981    -1537.663        0.682    55.0
0.3360        -1536.973    -1537.646        0.673    54.2
0.3370        -1536.964    -1537.643        0.679    54.7
0.3380        -1536.960    -1537.651        0.691    55.7
0.3390        -1536.969    -1537.661        0.692    55.8
0.3400        -1536.960    -1537.673        0.713    57.5
0.3410        -1536.967    -1537.683        0.716    57.7
0.3420        -1536.987    -1537.687        0.701    56.5
